t (s),V (mV)
0,13.6609
0.973,13.6544
1.911,13.6471
2.91,13.641
3.91,13.636
4.91,13.6297
5.91,13.6239
6.91,13.6187
7.909,13.6119
8.91,13.6049
9.91,13.6051
10.909,13.5926
11.91,13.584
12.909,13.5785
13.91,13.5702
14.91,13.567
15.909,13.5607
16.91,13.5583
17.91,13.5484
18.91,13.5427
19.909,13.5338
20.91,13.5278
21.91,13.5218
22.91,13.515
23.91,13.5077
24.909,13.5014
25.91,13.494
26.91,13.4876
27.909,13.4805
28.91,13.4732
29.91,13.4662
30.91,13.46
31.91,13.4527
32.91,13.4471
33.91,13.4391
34.91,13.4322
35.91,13.4252
36.91,13.4183
37.91,13.4114
38.91,13.4037
39.909,13.3969
40.91,13.3901
41.91,13.3821
42.909,13.3757
43.91,13.3682
44.91,13.3614
45.91,13.3548
46.91,13.347
47.91,13.3402
48.91,13.3333
49.91,13.3259
50.91,13.3201
51.91,13.3124
52.909,13.3061
53.91,13.299
54.91,13.292
55.91,13.2853
56.91,13.2781
57.91,13.271
58.91,13.2657
59.91,13.2589
60.91,13.2516
61.91,13.2441
62.91,13.2391
63.91,13.2326
64.91,13.226
65.91,13.219
66.91,13.2115
67.91,13.2063
68.91,13.1994
69.91,13.1943
70.91,13.1874
71.91,13.1817
72.91,13.1749
73.91,13.1683
74.91,13.161
75.91,13.1559
76.91,13.1491
77.91,13.142
78.91,13.1357
79.91,13.1307
80.91,13.1238
81.91,13.1166
82.91,13.1111
83.909,13.1036
84.91,13.0978
85.91,13.0911
86.91,13.0845
87.91,13.0781
88.91,13.0708
89.91,13.0648
90.91,13.0588
91.91,13.0523
92.91,13.0459
93.91,13.0398
94.91,13.0331
95.91,13.0265
96.91,13.0209
97.91,13.0134
98.91,13.0079
99.91,13.0018
100.91,12.9961
101.91,12.9891
102.91,12.9816
103.91,12.9766
104.91,12.9706
105.91,12.9645
106.91,12.9584
107.91,12.9515
108.91,12.9449
109.91,12.9386
110.909,12.932
111.91,12.9261
112.909,12.9197
113.91,12.913
114.91,12.9077
115.91,12.9003
116.91,12.8942
117.91,12.8873
118.91,12.8814
119.91,12.8756
120.91,12.8686
121.91,12.8627
122.91,12.8555
123.91,12.8499
124.91,12.842
125.91,12.8372
126.91,12.8311
127.91,12.8237
128.91,12.8173
129.91,12.8093
130.91,12.805
131.91,12.7976
132.91,12.7945
133.91,12.7862
134.91,12.7822
135.909,12.7766
136.91,12.7658
137.909,12.7622
138.91,12.7593
139.91,12.75
140.91,12.7492
141.91,12.7433
142.91,12.7365
143.91,12.7309
144.91,12.7245
145.909,12.7184
146.91,12.7131
147.91,12.7082
148.91,12.7025
149.91,12.6955
150.91,12.6904
151.91,12.6843
152.91,12.6792
153.91,12.6736
154.91,12.6672
155.91,12.6611
156.91,12.6555
157.909,12.649
158.91,12.6416
159.91,12.6371
160.91,12.6296
161.91,12.6238
162.91,12.6184
163.91,12.6122
164.91,12.6066
165.91,12.6003
166.909,12.5948
167.91,12.5886
168.909,12.5835
169.91,12.5772
170.91,12.5708
171.91,12.5651
172.91,12.5594
173.91,12.5526
174.91,12.5466
175.91,12.5411
176.91,12.5359
177.91,12.5307
178.909,12.5252
179.91,12.5206
180.91,12.515
181.91,12.5094
182.91,12.5042
183.91,12.4995
184.91,12.4928
185.91,12.4885
186.91,12.4821
187.909,12.4774
188.91,12.4725
189.91,12.4666
190.91,12.4613
191.91,12.4559
192.909,12.4501
193.91,12.4441
194.91,12.4383
195.909,12.4315
196.91,12.4258
197.91,12.4208
198.909,12.4151
199.91,12.4084
200.91,12.4027
201.91,12.3975
202.91,12.3916
203.91,12.3864
204.909,12.3797
205.91,12.3745
206.91,12.3694
207.91,12.3638
208.91,12.3588
209.91,12.3536
210.91,12.3487
211.91,12.3428
212.91,12.3382
213.909,12.332
214.91,12.3272
215.91,12.3214
216.91,12.3167
217.91,12.3131
218.91,12.3071
219.91,12.3021
220.909,12.2962
221.91,12.2921
222.91,12.2855
223.91,12.2813
224.91,12.2753
225.91,12.269
226.91,12.264
227.91,12.2584
228.91,12.2523
229.91,12.2458
230.91,12.2412
231.91,12.2378
232.91,12.2295
233.91,12.224
234.91,12.2193
235.91,12.2135
236.91,12.2093
237.91,12.2022
238.91,12.1971
239.91,12.1914
240.91,12.1862
241.91,12.1808
242.91,12.1767
243.91,12.1715
244.91,12.1671
245.91,12.1619
246.909,12.1562
247.91,12.1509
248.91,12.1466
249.909,12.1402
250.91,12.1364
251.91,12.1321
252.91,12.1266
253.909,12.1213
254.91,12.1167
255.91,12.1112
256.91,12.1063
257.91,12.1018
258.909,12.0968
259.91,12.093
260.91,12.0882
261.91,12.0823
262.91,12.0775
263.91,12.0739
264.91,12.0686
265.91,12.0626
266.91,12.0577
267.91,12.0525
268.91,12.0462
269.91,12.0414
270.91,12.0361
271.91,12.0306
272.91,12.025
273.91,12.0205
274.91,12.0156
275.91,12.0098
276.909,12.005
277.91,11.9988
278.91,11.9932
279.91,11.9886
280.91,11.9825
281.909,11.9789
282.91,11.9733
283.91,11.9686
284.909,11.9627
285.91,11.9593
286.91,11.9536
287.91,11.9502
288.91,11.9448
289.909,11.9402
290.91,11.9352
291.91,11.9306
292.91,11.9262
293.91,11.915
294.91,11.9157
295.91,11.9123
296.91,11.9085
297.91,11.9037
298.91,11.8991
299.91,11.8944
300.91,11.8904
301.91,11.884
302.91,11.8793
303.909,11.8752
304.91,11.8682
305.91,11.8637
306.91,11.8582
307.909,11.8535
308.91,11.848
309.91,11.8436
310.91,11.8376
311.91,11.8357
312.91,11.8276
313.91,11.8232
314.91,11.8183
315.91,11.8133
316.91,11.8077
317.91,11.8026
318.909,11.798
319.91,11.793
320.91,11.7884
321.91,11.7845
322.91,11.78
323.91,11.7758
324.91,11.7713
325.91,11.7664
326.91,11.7624
327.91,11.7579
328.909,11.7531
329.91,11.7489
330.91,11.7452
331.91,11.7407
332.909,11.7358
333.91,11.7317
334.91,11.727
335.91,11.7226
336.91,11.7172
337.91,11.7125
338.909,11.7072
339.91,11.7011
340.91,11.6962
341.91,11.6915
342.91,11.6863
343.91,11.6814
344.91,11.6766
345.91,11.6715
346.91,11.667
347.91,11.6621
348.91,11.6578
349.909,11.6523
350.91,11.6469
351.91,11.6411
352.91,11.6371
353.91,11.6331
354.909,11.6277
355.91,11.6234
356.91,11.6189
357.91,11.614
358.91,11.6087
359.91,11.6048
360.909,11.6009
361.91,11.5957
362.91,11.5919
363.91,11.5883
364.91,11.5826
365.91,11.5783
366.91,11.5738
367.91,11.5691
368.91,11.5666
369.91,11.561
370.91,11.5573
371.909,11.5527
372.91,11.5487
373.91,11.5439
374.91,11.54
375.91,11.5353
376.91,11.5311
377.91,11.526
378.91,11.522
379.91,11.5159
380.909,11.5104
381.91,11.5049
382.91,11.5011
383.91,11.4959
384.91,11.4914
385.91,11.4862
386.91,11.4827
387.91,11.4775
388.91,11.4715
389.91,11.468
390.91,11.4634
391.91,11.4578
392.91,11.4536
393.91,11.4503
394.91,11.4454
395.91,11.4405
396.91,11.4361
397.909,11.4322
398.91,11.4281
399.91,11.4241
400.91,11.4194
401.91,11.4148
402.91,11.4118
403.91,11.4069
404.91,11.4034
405.91,11.3988
406.91,11.3951
407.91,11.3901
408.91,11.3849
409.91,11.3803
410.91,11.3755
411.91,11.3701
412.91,11.3657
413.91,11.361
414.91,11.3562
415.909,11.3523
416.91,11.3464
417.91,11.3417
418.91,11.3364
419.91,11.3321
420.91,11.3272
421.91,11.3236
422.909,11.3196
423.91,11.3153
424.91,11.3121
425.91,11.3079
426.91,11.3036
427.91,11.3002
428.91,11.2953
429.91,11.2918
430.91,11.2875
431.91,11.2833
432.91,11.2792
433.91,11.2743
434.91,11.2706
435.91,11.2653
436.91,11.2596
437.91,11.2552
438.91,11.2507
439.91,11.2464
440.91,11.2418
441.91,11.2364
442.91,11.2321
443.91,11.2275
444.91,11.2233
445.909,11.2177
446.91,11.2127
447.91,11.2083
448.91,11.2053
449.91,11.2002
450.91,11.1971
451.91,11.1924
452.91,11.189
453.91,11.1848
454.91,11.1801
455.91,11.1762
456.909,11.1722
457.91,11.1681
458.909,11.1641
459.91,11.1594
460.909,11.1556
461.909,11.1516
462.91,11.148
463.91,11.1436
464.91,11.1386
465.91,11.1302
466.91,11.1305
467.91,11.1249
468.91,11.121
469.91,11.1164
470.91,11.112
471.909,11.1085
472.91,11.1042
473.91,11.0988
474.91,11.0946
475.91,11.0901
476.91,11.0845
477.91,11.0809
478.91,11.0763
479.91,11.0726
480.91,11.069
481.91,11.0661
482.909,11.0618
483.91,11.0582
484.91,11.0536
485.909,11.0502
486.91,11.0467
487.91,11.0428
488.91,11.0404
489.91,11.0355
490.909,11.0315
491.91,11.0261
492.91,11.021
493.91,11.0169
494.909,11.012
495.91,11.0063
496.91,11.0005
497.91,10.9985
498.91,10.9943
499.909,10.9906
500.91,10.9854
501.91,10.9807
502.91,10.9774
503.91,10.9743
504.91,10.9702
505.91,10.9668
506.91,10.9632
507.91,10.9589
508.91,10.9554
509.91,10.9503
510.91,10.9465
511.909,10.9431
512.909,10.9391
513.91,10.9357
514.909,10.9314
515.91,10.9266
516.91,10.9229
517.91,10.9171
518.91,10.9132
519.91,10.9078
520.91,10.9037
521.91,10.8992
522.91,10.8953
523.91,10.8901
524.91,10.8851
525.91,10.8813
526.91,10.8771
527.91,10.8722
528.91,10.8692
529.91,10.8654
530.91,10.8627
531.91,10.8592
532.909,10.8555
533.91,10.8514
534.91,10.8476
535.91,10.8444
536.91,10.8399
537.91,10.8374
538.91,10.8335
539.91,10.8281
540.909,10.8254
541.91,10.8198
542.909,10.8158
543.909,10.8107
544.909,10.8056
545.909,10.8012
546.91,10.7967
547.91,10.7932
548.91,10.7889
549.91,10.785
550.91,10.7809
551.91,10.7756
552.91,10.771
553.91,10.7673
554.91,10.7626
555.91,10.7586
556.91,10.7553
557.91,10.7506
558.909,10.7492
559.91,10.7441
560.91,10.7401
561.91,10.7358
562.91,10.7329
563.91,10.7285
564.91,10.7244
565.91,10.7199
566.91,10.7171
567.91,10.7128
568.909,10.7099
569.91,10.7066
570.91,10.7024
571.91,10.6991
572.91,10.6944
573.91,10.6895
574.909,10.6861
575.91,10.6815
576.91,10.6766
577.91,10.6732
578.91,10.6681
579.91,10.6637
580.91,10.6606
581.91,10.6559
582.91,10.6522
583.91,10.6472
584.909,10.6429
585.91,10.6389
586.91,10.6349
587.91,10.6309
588.91,10.6275
589.909,10.623
590.909,10.6196
591.91,10.6171
592.91,10.6122
593.909,10.6092
594.91,10.6054
595.91,10.601
596.909,10.5979
597.909,10.593
598.909,10.5894
599.908,10.5854
600.909,10.5824
601.909,10.5779
602.908,10.5746
603.909,10.5693
604.909,10.5656
643.252,10.4188
644.302,10.4151
645.352,10.4101
646.402,10.4074
647.408,10.4045
648.409,10.4006
649.409,10.3969
650.409,10.3928
651.409,10.3891
652.409,10.3848
653.409,10.382
654.409,10.3778
655.409,10.3745
656.409,10.3703
657.408,10.3664
658.409,10.363
659.409,10.3585
660.409,10.3532
661.409,10.3499
662.409,10.3459
663.408,10.3426
664.409,10.338
665.409,10.3344
666.409,10.3308
667.409,10.3299
668.409,10.325
669.409,10.3207
670.409,10.316
671.409,10.3124
672.409,10.3079
673.409,10.3055
674.409,10.3024
675.409,10.2983
676.409,10.2958
677.409,10.292
678.409,10.2887
679.409,10.285
680.409,10.2816
681.409,10.2785
682.409,10.2747
683.409,10.2703
684.409,10.2667
685.409,10.2633
686.409,10.26
687.409,10.2559
688.409,10.253
689.409,10.2493
690.409,10.2457
691.409,10.2433
692.409,10.2405
693.409,10.2376
694.408,10.2341
695.409,10.2311
696.409,10.2288
697.409,10.2255
698.409,10.222
699.409,10.218
700.409,10.215
701.409,10.2105
702.409,10.2081
703.409,10.2041
704.409,10.1999
705.409,10.1959
706.409,10.1919
707.409,10.1897
708.409,10.1839
709.409,10.1793
710.408,10.1735
711.409,10.1707
712.409,10.1655
713.409,10.1807
714.409,10.1609
715.408,10.154
716.409,10.1506
717.409,10.1482
718.409,10.1442
719.409,10.1409
720.409,10.1373
721.408,10.1343
722.409,10.1314
723.409,10.1278
724.408,10.1242
725.409,10.1207
726.409,10.1183
727.409,10.1139
728.409,10.1107
729.409,10.108
730.408,10.1045
731.409,10.1009
732.409,10.0977
733.408,10.0933
734.409,10.0899
735.409,10.0868
736.409,10.0828
737.409,10.0793
738.409,10.0761
739.409,10.0724
740.409,10.0692
741.408,10.0654
742.409,10.0625
743.409,10.0597
744.409,10.0563
745.409,10.0531
746.408,10.049
747.409,10.0453
748.409,10.0425
749.409,10.0394
750.409,10.0362
751.409,10.0324
752.409,10.0302
753.409,10.0269
754.409,10.0234
755.409,10.0198
756.409,10.0171
757.409,10.0133
758.409,10.0096
759.409,10.0059
760.408,10.0033
761.41,9.9987
762.41,9.995
763.41,9.9907
764.41,9.9865
765.41,9.9831
766.41,9.9798
767.41,9.9769
768.41,9.9731
769.41,9.9704
770.41,9.9668
771.41,9.9627
772.41,9.9587
773.41,9.9547
774.41,9.9512
775.41,9.9478
776.41,9.9441
777.41,9.9412
778.41,9.9371
779.41,9.9322
780.41,9.9305
781.41,9.9255
782.41,9.9226
783.41,9.9183
784.41,9.9148
785.41,9.9134
786.41,9.9092
787.41,9.906
788.41,9.9025
789.41,9.8996
790.41,9.8955
791.41,9.8915
792.41,9.8883
793.41,9.8822
794.41,9.8788
795.41,9.8771
796.411,9.8719
797.41,9.8692
798.41,9.8646
799.41,9.861
800.41,9.8575
801.41,9.8532
802.41,9.8497
803.41,9.8455
804.41,9.8428
805.41,9.8394
806.41,9.8367
807.41,9.8319
808.41,9.8293
809.41,9.8257
810.41,9.8219
811.41,9.8181
812.41,9.8147
813.41,9.8127
814.41,9.8091
815.41,9.8058
816.409,9.8013
817.41,9.7993
818.41,9.7963
819.41,9.7934
820.41,9.7896
821.41,9.7865
822.41,9.7836
823.41,9.7802
824.411,9.7775
825.41,9.7739
826.41,9.7711
827.41,9.7675
828.41,9.7642
829.41,9.7607
830.41,9.7572
831.41,9.7543
832.41,9.7513
833.41,9.7478
834.41,9.7442
835.41,9.7414
836.41,9.7382
837.41,9.7345
838.41,9.7316
839.41,9.7274
840.41,9.7245
841.41,9.7214
842.41,9.7183
843.41,9.7156
844.409,9.7125
845.41,9.7083
846.41,9.7051
847.41,9.7013
848.41,9.6985
849.41,9.6948
850.409,9.6919
851.41,9.688
852.41,9.685
853.41,9.6814
854.41,9.6784
855.41,9.675
856.411,9.6716
857.41,9.6673
858.41,9.6642
859.41,9.6612
860.41,9.658
861.41,9.654
862.411,9.6516
863.41,9.647
864.41,9.6444
865.41,9.6413
866.41,9.637
867.41,9.6335
868.41,9.6305
869.41,9.6261
870.41,9.6241
871.411,9.621
872.41,9.6172
873.41,9.6143
874.41,9.6109
875.41,9.6082
876.41,9.6042
877.41,9.6011
878.41,9.5966
879.41,9.5928
880.41,9.5891
881.41,9.5867
882.41,9.5822
883.41,9.5789
884.41,9.5753
885.41,9.5728
886.41,9.5678
887.41,9.5652
888.41,9.5619
889.41,9.5594
890.41,9.5558
891.41,9.5537
892.41,9.5494
893.41,9.5463
894.41,9.5429
895.41,9.5392
896.41,9.5362
897.41,9.533
898.41,9.5299
899.41,9.5265
900.41,9.5226
901.41,9.5206
902.41,9.517
903.41,9.5142
904.41,9.5099
905.41,9.5074
906.41,9.5052
907.41,9.5005
908.41,9.4977
909.41,9.4941
910.41,9.4907
911.41,9.4878
912.41,9.4854
913.41,9.4815
914.41,9.4786
915.41,9.4752
916.41,9.4727
917.41,9.4691
918.41,9.4652
919.41,9.4636
920.41,9.4599
921.41,9.4575
922.41,9.4548
923.41,9.4515
924.41,9.4489
925.41,9.4462
926.41,9.4433
927.41,9.4402
928.41,9.4355
929.41,9.4333
930.41,9.431
931.41,9.4269
932.41,9.424
933.41,9.4206
934.41,9.4165
935.41,9.4133
936.41,9.4098
937.41,9.4075
938.41,9.4028
939.41,9.4007
940.41,9.3972
941.409,9.3956
942.41,9.3907
943.41,9.3879
944.41,9.3846
945.41,9.381
946.41,9.3773
947.409,9.3747
948.41,9.3713
949.41,9.3672
950.41,9.3637
951.41,9.3623
952.41,9.3606
953.41,9.3535
954.411,9.354
955.41,9.3516
